reading_id,reading_time,wire_id,result_classification,heart_rate,heart_rate_alert,firmware_version,device_app_version,hardware_version,waveform_samples
0036d010-077e-11ee-8080-808080808080,Sat Jun 10 11:00:24 UTC 2023,e269f1104239,NSR,88,NONE,20001.188.58,2.13,Charge 5,[-10447  -11030  -11530  -12122  -13022  -14135  -15124  -15761  -16069  -16194  -16265  -16373  -16597  -17015  -17651  -18379  -18969  -19305  -19408  -19242  -18677  -17716  -16658  -15886  -15567  -15686  -16189  -16898  -17494  -17788  -17792  -17473  -16742  -15660  -14413  -13052  -11551  -10062  -8657  -6975  -4420  -580  4446  9859  14359  16870  17135  15510  12541  9033  5797  3178  1279  139  -485  -995  -1598  -2222  -2693  -2983  -3179  -3319  -3441  -3622  -3848  -4016  -4145  -4522  -5450  -6734  -7755  -8044  -7341  -5591  -3448  -1983  -1596  -1890  -2362  -2718  -2866  -2843  -2708  -2517  -2355  -2367  -2750  -3625  -4870  -6125  -7007  -7399  -7488  -7466  -7252  -6501  -4884  -2591  -365  1205  2099  2537  2705  2753  2784  2841  2903  2968  3181  3747  4699  5943  7450  9190  11036  12818  14389  15648  16513  16959  17074  16953  16612  16122  15690  15494  15615  16058  16645  17070  17200  17130  17037  17186  17879  19145  20646  21995  23046  23900  24619  25078  25098  24508  23302  21847  20582  19589  18773  18163  17820  17716  17818  18124  18528  18815  18830  18564  18140  17732  17460  17387  17539  17894  18404  18993  19507  19812  19910  19896  19834  19682  19342  18794  18131  17460  16780  16009  15164  14431  13956  13657  13407  13215  13151  13300  13718  14270  14682  14838  14793  14564  14154  13676  13285  13017  12851  12922  13582  14982  16599  17684  18109  18367  19045  20546  22802  25067  26211  25265  21920  16940  11843  7910  5581  4567  4226  3970  3546  2924  2016  729  -771  -2184  -3364  -4257  -4896  -5553  -6517  -7738  -8931  -9870  -10486  -10788  -10829  -10655  -10298  -9889  -9617  -9555  -9640  -9787  -9913  -9885  -9500  -8702  -7796  -7211  -7069  -7225  -7537  -7915  -8253  -8432  -8317  -7813  -7058  -6409  -6092  -6118  -6517  -7346  -8505  -9673  -10510  -10915  -11027  -11029  -11037  -11092  -11169  -11211  -11203  -11161  -11085  -10966  -10832  -10737  -10733  -10869  -11177  -11611  -12101  -12635  -13219  -13754  -14109  -14273  -14354  -14455  -14598  -14738  -14835  -14880  -14895  -14902  -14887  -14799  -14606  -14331  -13934  -13280  -12391  -11535  -10944  -10645  -10522  -10436  -10225  -9732  -9038  -8467  -8221  -8231  -8357  -8517  -8660  -8756  -8780  -8725  -8613  -8489  -8348  -8141  -7892  -7709  -7633  -7616  -7643  -7782  -8085  -8456  -8715  -8779  -8672  -8425  -8086  -7765  -7571  -7517  -7532  -7554  -7563  -7558  -7535  -7509  -7542  -7747  -8181  -8728  -9183  -9435  -9519  -9540  -9581  -9677  -9827  -9991  -10106  -10151  -10131  -10023  -9798  -9470  -9140  -8980  -9037  -9113  -9014  -8665  -7848  -6165  -3484  -248  2692  4330  3879  1524  -1450  -3718  -4707  -4486  -3602  -2769  -2290  -1988  -1579  -986  -379  67  354  577  799  1033  1266  1459  1564  1557  1461  1320  1172  1039  941  893  895  942  1029  1138  1268  1452  1739  2131  2545  2860  3009  3021  2965  2899  2854  2843  2867  2940  3071  3244  3411  3552  3743  4172  4958  5870  6505  6734  6711  6563  6305  5957  5583  5238  4956  4761  4630  4527  4430  4303  4096  3787  3394  2930  2394  1851  1381  912  344  -216  -533  -432  123  912  1558  1911  2077  2139  2104  2009  1920  1874  1862  1837  1764  1685  1802  2418  3683  5382  7023  8137  8591  8617  8513  8407  8327  8360  8703  9448  10317  10894  11126  11266  11419  11463  11353  11233  11184  11074  10717  10129  9504  8969  8491  7988  7501  7189  7139  7300  7556  7774  7877  7866  7776  7646  7509  7359  7162  6927  6716  6579  6525  6561  6694  6879  7023  7075  7042  6946  6806  6584  6163  5508  4778  4137  3636  3293  3068  2822  2457  2017  1591  1282  1290  1920  3382  5476  7552  8789  8451  6377  3365  596  -1186  -1760  -1288  -287  696  1427  1906  2228  2550  3022  3590  4014  4127  3877  3270  2482  1836  1480  1288  1096  882  708  611  580  576  564  535  514  513  511  496  477  462  442  377  220  7  -148  -191  -148  -69  4  52  75  86  93  96  76  9  -109  -294  -572  -888  -1117  -1245  -1365  -1509  -1617  -1669  -1726  -1857  -2055  -2243  -2371  -2460  -2543  -2630  -2704  -2745  -2751  -2732  -2683  -2570  -2366  -2099  -1849  -1673  -1574  -1523  -1492  -1451  -1331  -1038  -574  -88  254  374  207  -333  -1167  -2023  -2684  -3135  -3470  -3776  -4060  -4297  -4489  -4640  -4742  -4797  -4824  -4865  -4953  -5084  -5222  -5354  -5473  -5551  -5576  -5570  -5555  -5538  -5523  -5509  -5482  -5427  -5357  -5318  -5340  -5412  -5519  -5661  -5823  -5962  -6080  -6245  -6512  -6869  -7244  -7580  -7870  -8120  -8314  -8491  -8755  -9165  -9705  -10353  -11075  -11785  -12385  -12845  -13232  -13625  -14012  -14325  -14540  -14682  -14770  -14814  -14872  -15047  -15402  -15904  -16358  -16423  -15805  -14415  -12382  -10110  -8127  -6601  -5571  -5581  -7131  -9716  -12165  -13394  -12675  -10232  -7377  -5441  -4845  -5073  -5396  -5526  -5519  -5442  -5280  -5011  -4686  -4389  -4131  -3797  -3235  -2482  -1819  -1480  -1489  -1827  -2555  -3700  -5241  -7158  -9225  -10894  -11742  -11785  -11211  -10163  -8826  -7452  -6354  -5806  -5932  -6696  -7795  -8811  -9645  -10411  -11020  -11279  -11186  -10905  -10559  -10087  -9420  -8725  -8252  -8037  -7896  -7255  -5046  -788  4220  7878  9359  9430  9215  9532  10915  13183  15322  16459  16500  15679  14308  13015  12477  12802  13482  13881  13774  13459  13270  13239  13109  12290  10333  7515  4406  1301  -1486  -3436  -4238  -3999  -2999  -1603  -334  399  592  450  93  -499  -1408  -2641  -4025  -5228  -5983  -6351  -6672  -7228  -7957  -8584  -9015  -9392  -9866  -10483  -11193  -11893  -12478  -12745  -12192  -10346  -7664  -5305  -3738  -2650  -1882  -1458  -973  501  3554  7527  11111  13749  15705  17116  17904  18210  18282  18217  17981  17558  17021  16522  16229  16271  16700  17389  18034  18424  18600  18773  19221  20133  21404  22685  23704  24477  25205  25918  26202  25528  23860  21833  20482  20576  22066  24318  26470  27565  27034  25011  22018  18676  15611  13279  11995  11885  12648  13614  14159  14087  13646  13192  12928  12856  12873  12900  12937  13031  13187  13184  12460  10521  7734  5271  3950  3615  3680  3751  3725  3562  3161  2536  1941  1613  1546  1604  1674  1586  1060  -12  -1298  -2291  -2809  -2980  -2861  -2284  -1199  -9  718  763  271  -411  -875  -840  -280  531  1165  1333  879  -286  -1985  -3790  -5362  -6546  -7287  -7626  -7704  -7675  -7626  -7597  -7642  -7832  -8158  -8477  -8657  -8688  -8620  -8471  -8245  -7993  -7805  -7717  -7687  -7666  -7666  -7782  -8116  -8582  -8944  -9095  -9126  -9128  -9116  -9124  -9286  -9742  -10449  -11171  -11684  -11969  -12152  -12320  -12453  -12549  -12673  -12894  -13217  -13559  -13818  -14012  -14249  -14544  -14791  -14946  -15056  -15059  -14645  -13426  -11329  -8751  -6279  -4332  -3026  -2201  -1609  -1125  -765  -534  -321  38  596  1236  1870  2549  3368  4315  5239  5935  6318  6463  6481  6378  6077  5557  4883  4116  3361  2773  2421  2269  2239  2239  2176  1968  1557  939  119  -891  -1989  -2964  -3670  -4052  -3997  -3297  -1807  367  2691  4265  4234  2326  -820  -4000  -6214  -7106  -6984  -6492  -6061  -5682  -5086  -4081  -2848  -1842  -1351  -1295  -1445  -1660  -1905  -2206  -2575  -2928  -3152  -3241  -3282  -3337  -3393  -3409  -3369  -3262  -3064  -2817  -2622  -2500  -2375  -2198  -1990  -1792  -1637  -1553  -1538  -1559  -1570  -1520  -1360  -1101  -840  -683  -643  -658  -676  -685  -683  -661  -608  -518  -399  -270  -118  75  266  352  289  138  -28  -230  -510  -833  -1109  -1326  -1652  -2340  -3439  -4762  -6087  -7201  -7935  -8296  -8422  -8387  -8110  -7504  -6704  -6037  -5717  -5700  -5834  -5997  -6119  -6201  -6296  -6435  -6593  -6695  -6613  -6215  -5516  -4703  -3957  -3360  -2904  -2483  -1967  -1323  -577  250  1054  1635  1908  1978  2001  2054  2151  2305  2526  2776  2987  3133  3307  3639  4105  4511  4714  4762  4783  4863  5004  5169  5316  5402  5414  5371  5301  5223  5142  5066  5010  4981  4972  4975  4984  4987  4955  4855  4673  4430  4179  3995  3917  3923  3972  4039  4115  4206  4319  4441  4551  4623  4628  4519  4279  3986  3771  3792  4317  5657  7845  10409  12442  12924  11316  8149  4814  2535  1726  2073  2848  3398  3556  3540  3555  3619  3670  3677  3634  3541  3425  3327  3273  3255  3254  3252  3243  3217  3153  3031  2860  2690  2582  2545  2538  2531  2540  2597  2693  2778  2845  2953  3159  3423  3627  3718  3733  3724  3710  3682  3586  3364  3046  2735  2452  2146  1836  1611  1514  1507  1533  1559  1549  1436  1160  734  250  -185  -516  -782  -1071  -1377  -1593  -1677  -1681  -1642  -1506  -1210  -822  -495  -301  -212  -180  -172  -180  -220  -299  -392  -465  -505  -525  -548  -580  -604  -609  -584  -525  -444  -337  -153  150  539  913  1173  1298  1339  1344  1318  1255  1169  1085  1025  1005  1023  1044  1034  999  931  744  330  -281  -875  -1243  -1362  -1350  -1318  -1309  -1325  -1353  -1389  -1412  -1319  -970  -389  173  539  789  1077  1463  1971  2573  3117  3424  3378  2919  2107  1160  335  -241  -656  -1067  -1529  -2005  -2445  -2802  -3068  -3276  -3442  -3546  -3595  -3649  -3770  -3975  -4236  -4506  -4727  -4791  -4543  -3778  -2275  -4  2695  5118  6338  5734  3644  1209  -535  -1142  -768  -99  95  -429  -1358  -2234  -2778  -2988  -3049  -3133  -3287  -3454  -3562  -3600  -3612  -3627  -3638  -3636  -3632  -3647  -3700  -3798  -3924  -4049  -4157  -4276  -4465  -4726  -4966  -5104  -5152  -5153  -5108  -4992  -4831  -4688  -4599  -4570  -4593  -4627  -4629  -4587  -4500  -4380  -4238  -4072  -3875  -3629  -3308  -2904  -2483  -2108  -1733  -1292  -847  -518  -311  -129  79  262  373  440  539  719  960  1260  1653  2076  2372  2501  2562  2633  2716  2822  2983  3189  3377  3525  3703  3980  4304  4542  4637  4637  4603  4545  4459  4361  4277  4215  4184  4190  4252  4413  4701  5083  5484  5819  6015  6031  5821  5368  4810  4378  4168  4102  4083  4077  4064  3964  3692  3285  2867  2485  2134  1810  1470  1065  628  246  -1  -120  -178  -252  -379  -531  -669  -822  -1073  -1456  -1914  -2348  -2708  -3021  -3330  -3636  -3915  -4200  -4548  -4923  -5220  -5384  -5446  -5462  -5472  -5495  -5522  -5527  -5488  -5407  -5318  -5261  -5252  -5290  -5354  -5374  -5284  -5079  -4762  -4230  -3195  -1397  1016  3419  4844  4316  1722  -1783  -4716  -6261  -6426  -5814  -5146  -4716  -4405  -4103  -3880  -3799  -3790  -3763  -3692  -3573  -3360  -3011  -2594  -2239  -1976  -1726  -1419  -1049  -622  -117  441  934  1214  1234  1048  762  493  298  150  14  -87  -99  -1  196  484  800  1036  1137  1101  936  681  434  250  36  -332  -783  -1096  -1148  -982  -719  -495  -386  -425  -649  -1048  -1513  -1891  -2104  -2192  -2230  -2189  -1914  -1286  -391  502  1130  1406  1391  1158  769  347  -1  -288  -538  -716  -804  -851  -920  -1020  -1113  -1175  -1207  -1207  -1132  -953  -721  -544  -476  -518  -674  -927  -1198  -1441  -1695  -1979  -2258  -2534  -2839  -3164  -3452  -3649  -3739  -3750  -3695  -3518  -3154  -2655  -2193  -1885  -1709  -1612  -1609  -1722  -1890  -2034  -2167  -2334  -2517  -2668  -2793  -2940  -3104  -3233  -3304  -3302  -3145  -2738  -2138  -1529  -1051  -707  -393  11  518  1034  1443  1687  1762  1655  1331  809  169  -495  -1051  -1388  -1602  -1954  -2560  -3216  -3605  -3566  -3124  -2495  -1975  -1659  -1504  -1575  -1815  -1868  -1380  -35  2471  6028  9880  12804  13579  11718  7892  3540  157  -1284  -870  453  1839  2877  3392  3460  3192  2454  1214  -109  -1005  -1353  -1353  -1129  -655  8  617  967  1051  980  863  771  723  704  707  771  1018  1624  2644  3873  4968  5710  6158  6489  6758  6865  6641  6005  5162  4482  4169  4319  5120  6550  8063  9041  9404  9451  9377  9173  8829  8444  8150  8011  8007  8093  8221  8326  8296  7980  7331  6527  5860  5473  5280  5125  4943  4754  4592  4469  4362  4190  3896  3558  3292  3071  2773  2380  2000  1727  1587  1595  1794  2183  2615  2894  2946  2804  2520  2165  1772  1292  684  71  -340  -521  -616  -704  -765  -781  -780  -813  -916  -1054  -1150  -1201  -1290  -1472  -1709  -1933  -2144  -2402  -2722  -3025  -3203  -3227  -3144  -3028  -2948  -2961  -3095  -3327  -3586  -3803  -3938  -3995  -4011  -4014  -4021  -4061  -4181  -4421  -4778  -5199  -5596  -5875  -5992  -5968  -5849  -5700  -5598  -5556  -5512  -5403  -5227  -5035  -4867  -4745  -4683  -4748  -5052  -5614  -6287  -6889  -7303  -7465  -7363  -7091  -6890  -6932  -7035  -6795  -5802  -3735  -731  2508  5196  6659  6237  3722  -158  -4150  -7212  -8747  -8645  -7316  -5513  -4024  -3310  -3304  -3639  -3992  -4198  -4239  -4212  -4252  -4471  -4855  -5249  -5523  -5691  -5827  -5968  -6088  -6124  -6011  -5683  -5132  -4545  -4173  -4055  -4058  -4095  -4136  -4036  -3531  -2544  -1423  -639  -350  -453  -843  -1411  -2006  -2511  -2861  -3037  -3075  -2972  -2589  -1720  -361  1111  2198  2696  2806  2847  2939  3072  3344  3953  4964  6147  7145  7779  8086  8122  7908  7513  7063  6671  6385  6181  6025  5915  5833  5762  5693  5594  5426  5206  4986  4798  4662  4587  4558  4506  4343  4036  3644  3248  2927  2759  2863  3352  4159  5080  6065  7135  8079  8622  8685  8257  7339  6157  5047  4116  3242  2373  1676  1437  1801  2598  3292  3226  2220  741  -598  -1388  -1510  -1233  -977  -897  -912  -974  -1110  -1335  -1644  -2031  -2436  -2753  -2942  -3050  -3113  -3058  -2709  -1967  -1039  -309  8  -129  -761  -1797  -2947  -3943  -4683  -5184  -5517  -5777  -6053  -6332  -6546  -6712  -6900  -7109  -7311  -7523  -7745  -7956  -8192  -8490  -8801  -8996  -8810  -7939  -6235  -3779  -1041  1028  1383  -448  -3850  -7408  -9866  -10742  -10340  -9404  -8537  -7838  -7122  -6350  -5732  -5449  -5483  -5732  -6066  -6341  -6500  -6571  -6524  -6224  -5606  -4868  -4272  -3789  -3121  -2141  -1120  -428  -143  -97  -135  -214  -329  -343  120  1391  3214  4802  5634  5914  6122  6426  6659  6715  6697  6731  6810  6846  6776  6594  6331  6039  5776  5608  5714  6411  7826  9604  11136  12054  12421  12516  12540  12550  12578  12770  13343  14260  15138  15645  15788  15801  15921  16238  16649  16917  16728  15837  14224  12078  9689  7420  5610  4418  3775  3392  2917  2279  1690  1315  1149  1122  1202  1410  1708  1968  2093  2062  1844  1361  585  -329  -1067  -1420  -1487  -1550  -1815  -2239  -2614  -2812  -2846  -2740  -2514  -2248  -2074  -2080  -2293  -2647  -3014  -3308  -3525  -3660  -3611  -3167  -2234  -1087  -202  193  248  207  161  30  -295  -797  -1356  -1897  -2422  -2952  -3478  -3956  -4329  -4567  -4679  -4713  -4723  -4713  -4635  -4463  -4244  -4063  -3959  -3907  -3812  -3521  -2896  -1897  -621  656  1601  2121  2360  2488  2789  3724  5621  8376  11351  13407  13348  10780  6602  2433  -435  -1556  -1320  -646  -267  -305  -545  -805  -1005  -1118  -1156  -1149  -1115  -1036  -863  -574  -255  -54  -65  -288  -619  -896  -1037  -1072  -1049  -996  -931  -856  -752  -618  -464  -309  -173  -81  -31  14  73  102  35  -112  -247  -317  -339  -341  -339  -345  -370  -407  -426  -432  -488  -614  -748  -838  -877  -892  -913  -959  -1018  -1071  -1124  -1190  -1272  -1409  -1707  -2246  -2949  -3624  -4149  -4520  -4770  -4931  -5052  -5160  -5243  -5269  -5221  -5104  -4926  -4694  -4458  -4304  -4291  -4446  -4740  -5050  -5234  -5257  -5171  -5054  -4971  -4952  -4976  -4952  -4699  -4102  -3353  -2823  -2682  -2876  -3305  -3817  -4229  -4466  -4582  -4685  -4867  -5154  -5513  -5879  -6164  -6315  -6349  -6330  -6307  -6285  -6257  -6223  -6181  -6130  -6050  -5915  -5744  -5604  -5520  -5434  -5256  -4954  -4604  -4344  -4232  -4227  -4271  -4340  -4410  -4385  -4079  -3376  -2403  -1461  -757  -295  24  292  561  824  1046  1237  1436  1657  1866  1999  2023  1939  1773  1608  1572  1723  2040  2631  3769  5608  7890  9897  10695  9644  6966  3779  1284  26  -110  346  778  913  918  989  1101  1166  1176  1159  1128  1080  1018  952  849  661  405  155  -74  -341  -697  -1107  -1469  -1725  -1882  -1956  -1966  -1956  -1966  -2022  -2126  -2240  -2295  -2209  -1936  -1539  -1152  -870  -716  -674  -701  -753  -790  -777  -653  -326  225  825  1249  1442  1485  1460  1423  1433  1575  1901  2375  2889  3322  3598  3741  3860  4056  4327  4572  4715  4761  4736  4625  4394  4071  3734  3400  3043  2712  2515  2523  2754  3141  3511  3728  3816  3854  3859  3817  3750  3707  3705  3711  3667  3526  3299  3065  2908  2833  2780  2717  2668  2678  2766  2908  3057  3212  3428  3713  3994  4195  4301  4342  4359  4379  4396  4392  4359  4299  4225  4137  4002  3787  3509  3243  3063  2986  2978  2995  3020  3045  3044  2972  2802  2554  2258  1935  1611  1304  994  657  332  110  37  72  141  208  285  375  468  573  675  714  647  508  350  114  -280  -687  -842  -606  134  1546  3652  6113  8209  9038  7952  5143  1736  -985  -2313  -2279  -1522  -829  -587  -708  -938  -1120  -1240  -1326  -1396  -1458  -1519  -1563  -1574  -1559  -1537  -1528  -1541  -1576  -1642  -1749  -1874  -1968  -2005  -2006  -2012  -2059  -2159  -2303  -2451  -2556  -2604  -2611  -2594  -2550  -2492  -2466  -2512  -2614  -2725  -2811  -2856  -2870  -2869  -2867  -2869  -2894  -2978  -3140  -3348  -3539  -3664  -3720  -3746  -3770  -3798  -3807  -3769  -3684  -3581  -3496  -3445  -3420  -3411  -3432  -3530  -3718  -3923  -4054  -4094  -4079  -4032  -3956  -3843  -3675  -3464  -3277  -3164  -3100  -3034  -2944  -2828  -2633  -2280  -1789  -1289  -854  -460  -103  171  357  527  760  1030  1236  1340  1389  1473  1650  1896  2113  2229  2257  2247  2210  2131  2032  1976  1996  2060  2110  2127  2126  2121  2100  2039  1937  1817  1689  1562  1443  1318  1172  1019  885  775  684  612  555  488  383  223  -11  -318  -617  -803  -864  -866  -852  -830  -790  -726  -644  -548  -422  -243  -31  157  290  373  435  534  659  658  393  -60  -481  -625  -231  925  2882  5385  7855  9437  9316  7277  4024  801  -1376  -2207  -2064  -1603  -1287  -1230  -1351  -1530  -1669  -1741  -1798  -1897  -2029  -2146  -2244  -2358  -2494  -2615  -2679  -2641  -2468  -2197  -1930  -1755  -1685  -1676  -1683  -1699  -1736  -1790  -1836  -1876  -1935  -2014  -2084  -2127  -2145  -2150  -2160  -2176  -2185  -2178  -2134  -2024  -1857  -1693  -1586  -1535  -1509  -1486  -1485  -1535  -1593  -1608  -1585  -1566  -1586  -1676  -1836  -2010  -2130  -2169  -2124  -1995  -1807  -1625  -1503  -1464  -1501  -1571  -1630  -1663  -1660  -1579  -1363  -995  -545  -146  117  275  419  615  872  1189  1600  2116  2664  3138  3478  3693  3825  3928  4053  4202  4328  4405  4448  4484  4530  4595  4693  4847  5038  5188  5211  5024  4586  3985  3421  3003  2643  2221  1726  1205  749  473  395  419  460  494  518  527  492  366  143  -90  -228  -250  -204  -141  -91  -56  -48  -129  -376  -769  -1187  -1518  -1707  -1764  -1717  -1574  -1367  -1160  -987  -859  -790  -785  -834  -932  -1125  -1502  -2053  -2637  -3130  -3508  -3825  -4138  -4439  -4712  -4912  -4764  -3863  -2048  436  2914  4405  4115  2016  -991  -3676  -5240  -5596  -5200  -4674  -4411  -4400  -4417  -4303  -4005  -3506  -2905  -2401  -2086  -1887  -1714  -1560  -1487  -1529  -1659  -1863  -2152  -2464  -2668  -2718  -2675  -2618  -2579  -2539  -2466  -2382  -2333  -2279  -2076  -1642  -1076  -524  14  635  1315  1899  2292  2553  2826  3187  3550  3757  3709  3408  3002  2709  2610  2626  2678  2756  2877  3059  3287  3501  3633  3675  3672  3644  3578  3464  3331  3196  3029  2799  2535  2309  2168  2103  2049  1950  1809  1666  1551  1467  1404  1363  1353  1389  1465  1553  1627  1685  1766  1947  2290  2807  3451  4098  4603  4903  5034  5075  5102  5152  5211  5256  5309  5415  5578  5747  5878  5957  5972  5876  5597  5137  4602  4116  3708  3302  2845  2394  2059  1885  1830  1797  1676  1440  1180  1004  931  912  892  830  729  629  567  539  522  500  476  460  457  460  461  449  418  365  285  182  83  23  13  39  88  139  123  -69  -483  -962  -1265  -1292  -1119  -919  -863  -988  -1179  -1262  -1002  -87  1685  4129  6604  8220  8167  6233  3137  107  -1907  -2636  -2430  -1933  -1652  -1714  -1958  -2216  -2467  -2726  -2937  -3056  -3108  -3148  -3193  -3220  -3214  -3188  -3174  -3182  -3204  -3227  -3247  -3253  -3218  -3123  -3003  -2918  -2891  -2901  -2926  -2943  -2902  -2733  -2430  -2092  -1826  -1624  -1433  -1249  -1090  -952  -840  -784  -800  -863  -958  -1113  -1328  -1539  -1674  -1720  -1717  -1713  -1748  -1832  -1935  -2022  -2101  -2231  -2441  -2685  -2889  -3024  -3120  -3201  -3240  -3181  -2980  -2666  -2359  -2179  -2139  -2170  -2208  -2228  -2225  -2200  -2162  -2134  -2153  -2252  -2421  -2602  -2743  -2809  -2771  -2605  -2351  -2102  -1910  -1773  -1684  -1656  -1721  -1891  -2113  -2322  -2539  -2820  -3116  -3311  -3371  -3356  -3337  -3358  -3445  -3580  -3719  -3856  -4024  -4219  -4378  -4453  -4456  -4423  -4383  -4356  -4342  -4332  -4325  -4316  -4279  -4163  -3950  -3698  -3491  -3321  -3116  -2889  -2742  -2724  -2805  -2949  -3132  -3323  -3519  -3756  -4054  -4371  -4640  -4812  -4886  -4885  -4811  -4645  -4362  -3948  -3440  -2971  -2679  -2552  -2485  -2423  -2369  -2329  -2301  -2287  -2282  -2272  -2235  -2168  -2084  -1840  -971  1108  4579  8890  12881  15246  15210  13135  10277  7840  6423  6021  6156  6250  6039  5598  5148  4866  4770  4766  4745  4616  4331  3916  3487  3173  2990  2847  2674  2495  2367  2298  2233  2093  1835  1475  1055  614  232  11  -48  -20  59  187  333  450  521  554  585  734  1147  1851  2745  3729  4631  5209  5407  5395  5332  5261  5185  5126  5129  5250  5505  5807  6017  6004  5640  4901  3993  3233  2783  2586  2517  2499  2501  2506  2507  2506  2501  2482  2440  2384  2340  2324  2330  2347  2344  2273  2106  1888  1700  1573  1483  1422  1381  1332  1268  1209  1160  1113  1077  1092  1176  1306  1434  1516  1540  1520  1465  1389  1317  1256  1193  1129  1082  1062  1056  1043  984  817  492  24  -506  -1013  -1477  -1931  -2378  -2765  -3022  -3127  -3122  -3060  -2968  -2878  -2820  -2804  -2846  -2971  -3172  -3393  -3597  -3783  -3955  -4106  -4219  -4283  -4312  -4338  -4352  -4271  -3961  -3345  -2520  -1764  -1322  -1197  -1220  -1257  -1275  -1284  -1295  -1324  -1439  -1717  -2083  -2321  -2300  -2046  -1574  -812  370  1989  3678  4690  4201  1910  -1490  -4747  -6947  -7818  -7600  -6889  -6181  -5522  -4833  -4211  -3696  -3140  -2430  -1695  -1171  -941  -934  -1148  -1669  -2433  -3147  -3567  -3725  -3793  -3886  -4027  -4187  -4318  -4400  -4406  -4235  -3751  -2938  -2015  -1278  -810  -453  -8  611  1317  1905  2222  2259  2006  1439  706  81  -312  -532  -654  -708  -663  -410  92  673  1102  1352  1561  1799  1998  2031  1741  1023  7  -966  -1653  -2084  -2424  -2728  -2918  -2904  -2669  -2293  -1922  -1651  -1497  -1434  -1430  -1488  -1646  -1916  -2251  -2620  -3037  -3474  -3838  -4069  -4183  -4234  -4256  -4202  -3931  -3299  -2297  -1119  -117  426  528  409  248  124  104  322  918  1877  2991  3982  4678  5133  5532  6018  6599  7139  7463  7543  7485  7390  7309  7267  7257  7255  7248  7233  7158  6883  6320  5605  4940  4345  3734  3095  2472  1921  1481  1144  892  736  676  667  674  691  718  751  790  813  772  625  406  209  113  232  723  1585  2569  3451  4177  4732  5081  5230  5284  5444  5906  6791  8150  9992  12190  14310  15666  15574  13703  10479  6889  3845  1879  1053  964  1134  1344  1553  1743  1875  1927  1891  1759  1510  1127  625  72  -403  -684  -783  -830  -937  -1116  -1294  -1441  -1621  -1887  -2212  -2533  -2783  -2901  -2827  -2541  -2158  -1879  -1781  -1792  -1833  -1859  -1808  -1595  -1204  -742  -316  50  351  537  575  462  223  -51  -256  -388  -506  -645  -811  -998  -1204  -1456  -1761  -2076  -2361  -2580  -2701  -2731  -2720  -2701  -2682  -2676  -2741  -2967  -3356  -3755  -4012  -4107  -4108  -4064  -3989  -3901  -3815  -3729  -3621  -3458  -3190  -2807  -2417  -2182  -2207  -2500  -2957  -3413  -3802  -4162  -4521  -4867  -5159  -5345  -5415  -5414  -5391  -5369  -5353  -5343  -5330  -5240  -4911  -4246  -3348  -2465  -1821  -1456  -1204  -888  -436  184  942  1649  2099  2276  2318  2344  2381  2408  2418  2420  2422  2422  2425  2453  2519  2587  2591  2531  2459  2367  2172  1834  1429  1070  784  557  414  367  387  445  547  713  927  1130  1281  1380  1441  1474  1462  1327  972  415  -173  -612  -824  -807  -546  63  1246  3187  5709  8138  9513  9037  6673  3406  615  -832  -894  -141  670  1148  1395  1580  1707  1740  1653  1415  1072  737  483  310  193  102  21  -55  -129  -186  -215  -233  -275  -345  -424  -507  -613  -732  -816  -833  -783  -679  -546  -420  -340  -307  -292  -265  -202  -86  116  434  806  1089  1203  1162  1020  853  741  726  840  1121  1517  1863  2041  2074  2000  1807  1534  1299  1170  1088  959  757  549  415  362  329  250  78  -185  -485  -773  -1026  -1237  -1461  -1776  -2160  -2483  -2648  -2680  -2682  -2738  -2870  -3069  -3334  -3639  -3903  -4040  -4002  -3794  -3513  -3312  -3272  -3363  -3511  -3646  -3755  -3890  -4109  -4406  -4703  -4908  -4975  -4918  -4787  -4634  -4499  -4391  -4311  -4272  -4273  -4289  -4303  -4335  -4418  -4546  -4667  -4737  -4765  -4778  -4761  -4646  -4335  -3728  -2857  -2001  -1460  -1231  -1050  -610  318  1798  3624  5313  6382  6729  6497  5750  4674  3722  3197  2961  2691  2213  1580  985  613  483  477  489  480  426  287  -8  -518  -1173  -1705  -1774  -1071  655  3338  6363  8917  10387  10362  8690  5781  2549  -151  -1874  -2553  -2446  -1985  -1503  -1111  -827  -644  -527  -389  -86  442  1026  1388  1393  1069  582  159  -87  -220  -341  -493  -656  -775  -793  -689  -535  -396  -181  266  878  1365  1558  1533  1438  1357  1304  1312  1522  2126  3145  4301  5189  5616  5680  5518  5153  4653  4172  3789  3492  3283  3166  3122  3122  3139  3148  3116  2979  2631  2024  1330  790  420  69  -332  -756  -1140  -1440  -1654  -1804  -1914  -2010  -2090  -2129  -2083  -1868  -1409  -806  -288  41  243  385  467  477  456  552  964  1740  2618  3235  3480  3428  3048  2272  1265  370  -196  -452  -550  -667  -907  -1249  -1580  -1800  -1889  -1895  -1875  -1864  -1889  -1968  -2081  -2171  -2174  -2039  -1762  -1428  -1134  -901  -724  -623  -606  -668  -799  -967  -1122  -1234  -1337  -1484  -1680  -1911  -2191  -2546  -2945  -3278  -3471  -3573  -3661  -3740  -3786  -3807  -3830  -3842  -3789  -3615  -3315  -2983  -2773  -2791  -3037  -3377  -3619  -3687  -3670  -3740  -4047  -4548  -5010  -5221  -5022  -4204  -2622  -436  1850  3522  3796  2317  -374  -3161  -5116  -5891  -5669  -4949  -4212  -3624  -3112  -2613  -2158  -1806  -1582  -1452  -1376  -1337  -1334  -1385  -1508  -1670  -1800  -1845  -1801  -1701  -1599  -1531  -1497  -1481  -1479  -1488  -1498  -1484  -1411  -1260  -1025  -691  -286  85  344  486  533  515  488  512  599  722  842  949  1063  1192  1301  1355  1341  1225  975  630  268  -55  -318  -502  -606  -632  -600  -555  -531  -525  -525  -544  -626  -794  -1009  -1201  -1335  -1416  -1460  -1468  -1355  -961  -254  567  1298  1905  2383  2693  2846  2904  2898  2805  2599  2336  2106  1902  1637  1271  866  507  241  63  -72  -216  -378  -520  -628  -780  -1058  -1399  -1654  -1761  -1771  -1727  -1628  -1483  -1338  -1233  -1198  -1236  -1310  -1381  -1436  -1477  -1519  -1584  -1668  -1748  -1802  -1795  -1658  -1343  -912  -534  -333  -286  -287  -270  -209  -41  402  1317  2657  4045  5060  5592  5882  6226  6673  7053  7245  7318  7383  7429  7373  7234  7101  6945  6594  5942  5138  4451  3971  3643  3496  3660  4363  5834  7914  9909  10907  10159  7592  4128  1110  -623  -1023  -620  -113  97  52  -43  -80  -67  -38  -20  -31  -73  -143  -229  -323  -429  -543  -634  -678  -687  -684  -681  -674  -655  -626  -598  -574  -548  -503  -428  -333  -230  -129  -51  -25  -53  -106  -156  -198  -238  -263  -248  -183  -88  -5  37  51  53  61  107  223  395  552  641  663  630  535  387  231  99  -1  -56  -54  -13  35  58  30  -45  -159  -286  -384  -446  -493  -480  -276  170  703  1077  1209  1154  963  684  403  184  46  -12  5  87  195  274  301  293  276  279  355  546  830  1102  1262  1303  1269  1184  1062  941  853  800  758  679  534  365  248  210  224  255  295  350  416  472  516  566  643  740  833  908  956  965  897  727  510  349  278  244  157  -66  -419  -761  -961  -1021  -1024  -1028  -1041  -1050  -1053  -1063  -1087  -1123  -1166  -1226  -1324  -1459  -1596  -1704  -1795  -1862  -1841  -1715  -1538  -1227  -429  1224  3688  6278  7891  7575  5242  1882  -1118  -2860  -3234  -2744  -2082  -1702  -1654  -1745  -1839  -1944  -2076  -2193  -2255  -2273  -2278  -2275  -2251  -2208  -2179  -2171  -2157  -2126  -2099  -2084  -2057  -1996  -1882  -1708  -1504  -1330  -1217  -1160  -1135  -1124  -1112  -1093  -1071  -1056  -1050  -1034  -993  -938  -893  -861  -824  -741  -571  -348  -164  -69  -44  -54  -78  -114  -174  -266  -363  -433  -469  -488  -519  -584  -678  -780  -879  -966  -1023  -1043  -1030  -995  -955  -935  -947  -976  -1002  -1016  -1020  -1020  -1017  -1013  -1005  -998  -998  -1005  -1015  -1022  -1023  -1017  -1009  -1016  -1065  -1163  -1284  -1389  -1491  -1637  -1821  -1951  -1932  -1741  -1470  -1274  -1216  -1204  -1075  -732  -271  79  220  237  233  241  247  230  173  95  33  -2  -23  -37  -34  3  96  247  415  537  590  599  600  621  693  835  1008  1128  1155  1114  1040  946  817  669  560  524  540  576  607  620  619  621  648  711  805  911  1018  1102  1095  965  759  505  305  512  1554  3554  6151  8543  9713  8920  6335  3048  248  -1450  -2017  -1799  -1300  -899  -713  -692  -729  -761  -792  -843  -920  -1011  -1107  -1225  -1357  -1453  -1489  -1479  -1435  -1354  -1241  -1128  -1057  -1037  -1043  -1053  -1056  -1043  -1006  -945  -865  -760  -613  -440  -288  -175  -72  16  26  -88  -273  -414  -460  -440  -386  -321  -281  -320  -472  -680  -834  -888  -884  -868  -855  -847  -862  -921  -1018  -1120  -1196  -1250  -1289  -1313  -1330  -1362  -1428  -1518  -1599  -1643  -1651  -1646  -1630  -1546  -1308  -916  -510  -233  -90  14  133  250  354  454  542  599  624  645  696  799  935  1059  1136  1180  1231  1315  1429  1542  1618  1647  1645  1623  1576  1506  1423  1331  1246  1192  1170  1163  1174  1242  1390  1563  1681  1731  1757  1784  1805  1814  1822  1858  1952  2078  2172  2192  2145  2062  1963  1865  1799  1771  1729  1608  1379  1076  795  628  586  617  686  754  740  563  247  -65  -260  -342  -372  -394  -407  -417  -510  -764  -1110  -1390  -1407  -877  436  2498  4910  6956  7803  6888  4392  1263  -1421  -3017  -3395  -2927  -2266  -1846  -1677  -1585  -1497  -1431  -1409  -1437  -1528  -1672  -1823  -1936  -2014  -2088  -2149  -2154  -2093  -1998  -1886  -1755  -1615  -1483  -1366  -1270  -1197  -1143  -1105  -1084  -1081  -1086  -1082  -1052  -995  -928  -867  -820  -780  -719  -613  -483  -374  -308  -280  -278  -289  -311  -350  -414  -491  -550  -575  -577  -581  -606  -644  -674  -684  -688  -701  -724  -743  -755  -759  -731  -617  -406  -171  1  86  90  31  -38  -67  -30  68  178  249  293  347  415  475  509  521  522  517  503  476  439  420  442  479  499  503  515  554  617  677  711  713  695  669  645  629  594  473  222  -89  -322  -425  -459  -485  -515  -544  -568  -586  -599  -610  -613  -600  -561  -497  -429  -387  -373  -377  -395  -435  -491  -567  -702  -922  -1177  -1394  -1556  -1679  -1748  -1719  -1541  -1239  -940  -756  -681  -672  -743  -919  -1140  -1293  -1320  -1241  -1104  -957  -807  -575  -33  1166  3199  5716  7895  8805  7793  4983  1416  -1644  -3424  -3779  -3107  -2121  -1404  -1106  -1068  -1114  -1170  -1226  -1275  -1293  -1271  -1236  -1236  -1295  -1405  -1529  -1631  -1689  -1712  -1735  -1779  -1841  -1901  -1937  -1939  -1911  -1858  -1786  -1689  -1583  -1499  -1447  -1394  -1314  -1209  -1103  -1033  -1005  -990  -931  -793  -621  -496  -445  -427  -397  -341  -284  -249  -226  -178  -50  179  447  644  731  739  696  601  451  276  132  36  -78  -279  -540  -768  -890  -834  -492  175  1065  1993  2793  3361  3666  3776  3815  3863  3917  3944  3900  3728  3392  2950  2555  2342  2319  2404  2514  2593  2626  2620  2563  2434  2250  2043  1817  1591  1415  1309  1252  1219  1200  1218  1277  1347  1408  1460  1497  1521  1548  1596  1702  1912  2220  2519  2693  2720  2637  2483  2302  2144  2039  1974  1906  1791  1640  1485  1292  1016  715  503  386  264  43  -272  -592  -840  -1008  -1111  -1157  -1164  -1160  -1169  -1206  -1284  -1435  -1692  -1975  -2083  -1897  -1453  -810  93  1436  3249  5153  6391  6122  4070  1012  -1764  -3426  -3844  -3453  -2935  -2643  -2426  -2065  -1607  -1250  -1095  -1094  -1175  -1316  -1521  -1782  -2050  -2244  -2329  -2340  -2328  -2307  -2269  -2219  -2182  -2113  -1848  -1282  -586  -82  95  17  -220  -505  -700  -765  -761  -748  -723  -659  -554  -447  -375  -335  -306  -286  -274  -258  -210  -98  79  256  329  234  2  -243  -389  -424  -408  -386  -375  -392  -477  -646  -839  -977  -1054  -1124  -1222  -1335  -1472  -1686  -1970  -2232  -2407  -2503  -2531  -2469  -2313  -2096  -1869  -1692  -1594  -1555  -1556  -1589  -1607  -1562  -1459  -1360  -1285  -1131  -710  99  1202  2274  2968  3214  3204  3145  3115  3113  3122  3131  3085  2884  2491  2046  1742  1625  1614  1627  1624  1584  1499  1374  1222  1056  866  646  439  318  294  330  383  430  441  366  160  -131  -384  -520  -585  -701  -972  -1381  -1795  -2102  -2311  -2498  -2686  -2820  -2858  -2808  -2696  -2570  -2487  -2464  -2483  -2531  -2597  -2665  -2725  -2762  -2771  -2772  -2674  -2133  -770  1439  3958  5853  6275  4894  2223  -553  -2413  -3054  -2767  -2128  -1619  -1380  -1312  -1312  -1331  -1340  -1331  -1311  -1293  -1291  -1298  -1274  -1169  -955  -626  -217  164  411  524  582  643  726  835  964  1087  1173  1217  1233  1255  1319  1424  1536  1653  1830  2092  2359  2530  2583  2543  2416  2214  1995  1812  1665  1540  1450  1418  1437  1472  1493  1484  1424  1304  1145  991  875  813  802  832  895  990  1106  1214  1278  1273  1189  1036  805  463  51  -301  -515  -635  -761  -944  -1146  -1296  -1366  -1368  -1312  -1200  -1030  -801  -553  -378  -330  -396  -544  -728  -890  -995  -1057  -1125  -1227  -1337  -1409  -1431  -1424  -1404  -1361  -1274  -1152  -1039  -958  -897  -837  -752  -570  -227  268  785  1144  1280  1269  1207  1141  1102  1131  1260  1463  1655  1790  1890  1954  1935  1832  1696  1548  1362  1107  785  436  82  -309  -745  -1173  -1547  -1837  -2031  -2169  -2319  -2522  -2787  -3081  -3328  -3481  -3580  -3692  -3830  -3961  -4082  -4256  -4510  -4705  -4604  -3989  -2697  -738  1517  3305  3692  2145  -903  -4189  -6466  -7227  -6753  -5782  -5026  -4716  -4663  -4656  -4621  -4552  -4455  -4310  -4049  -3618  -3091  -2655  -2427  -2370  -2406  -2528  -2765  -3063  -3302  -3440  -3515  -3562  -3594  -3629  -3684  -3776  -3924  -4100  -4222  -4208  -4021  -3693  -3319  -2986  -2748  -2628  -2586  -2496  -2202  -1684  -1113  -671  -397  -240  -157  -107  -50  27  121  218  344  583  980  1471  2006  2627  3321  3967  4456  4767  4968  5134  5295  5495  5790  6118  6329  6340  6182  5963  5806  5746  5732  5705  5641  5549  5458  5397  5362  5327  5278  5215  5131  5013  4876  4753  4645  4533  4419  4281  4069  3789  3517  3295  3117  2970  2859  2787  2749  2737  2767  2859  2985  3076  3090  3041  2970  2910  2843  2719  2534  2353  2233  2167  2115  2056  2000  1958  1943  2020  2256  2596  2871  2975  2903  2682  2370  2062  1824  1664  1532  1368  1161  940  713  463  184  -70  -222  -267  -266  -260  -261  -272  -303  -359  -416  -439  -425  -399  -394  -439  -534  -647  -711  -604  -143  912  2694  4987  7237  8642  8421  6432  3471  699  -1088  -1714  -1536  -1183  -1125  -1351  -1569  -1630  -1612  -1632  -1734  -1877  -1985  -2038  -2062  -2083  -2118  -2162  -2199  -2238  -2313  -2438  -2575  -2670  -2699  -2674  -2616  -2547  -2487  -2445  -2424  -2432  -2479  -2564  -2663  -2734  -2739  -2676  -2577  -2471  -2364  -2245  -2128  -2045  -2011  -2020  -2069  -2148  -2232  -2302  -2375  -2484  -2618  -2719  -2758  -2752  -2712  -2632  -2512  -2335  -2067  -1722  -1403  -1204  -1117  -1071  -1009  -906  -801  -760  -753  -707  -627  -539  -423  -281  -169  -128  -145  -189  -234  -270  -292  -302  -305  -305  -308  -322  -353  -392  -393  -263  53  451  737  840  836  826  871  961  1044  1111  1184  1277  1375  1447  1488  1525  1565  1600  1633  1694  1786  1874  1923  1937  1943  1960  1974  1961  1915  1860  1813  1771  1713  1624  1509  1402  1329  1291  1276  1277  1279  1256  1185  1070  944  838  730  590  445  304  98  -237  -648  -994  -1203  -1308  -1373  -1424  -1462  -1491  -1511  -1515  -1525  -1601  -1791  -2052  -2221  -2099  -1555  -480  1265  3569  5833  7195  6890  4741  1541  -1382  -3091  -3403  -2775  -1970  -1533  -1473  -1499  -1438  -1306  -1158  -1021  -918  -855  -798  -685  -515  -347  -199  -42  115  218  257  269  288  332  414  538  668  749  750  659  497  315  158  16  -164  -398  -627  -790  -877  -921  -968  -1060  -1211  -1391  -1560  -1709  -1835  -1913  -1948  -1973  -2003  -2031  -2056  -2101  -2190  -2319  -2453  -2547  -2585  -2601  -2693  -2961  -3376  -3769  -4004  -4084  -4097  -4114  -4150  -4181  -4194  -4197  -4203  -4212  -4222  -4215  -4161  -4042  -3877  -3716  -3592  -3484  -3329  -3086  -2817  -2640  -2583  -2571  -2528  -2445  -2342  -2222  -2062  -1841  -1588  -1372  -1242  -1176  -1046  -691  -98  582  1238  1864  2469  3025  3499  3869  4119  4260  4359  4456  4531  4583  4643  4715  4793  4889  4990  5065  5108  5122  5110  5082  5048  5019  4990  4938  4854  4747  4612  4428  4173  3859  3527  3214  2966  2821  2734  2597  2350  2051  1808  1684  1644  1594  1474  1310  1158  1028  874  684  496  337  183  42  -13  84  469  1398  3062  5352  7701  9179  8917  6717  3391  282  -1630  -2092  -1476  -487  286  624  622  511  445  435  444  451  451  449  448  449  446  424  388  373  404  458  496  514  519  503  453  368  278  219  213  254  310  339  332  302  251  179  112  74  58  44  26  7  -8  -29  -71  -135  -197  -216  -138  66  357  649  881  1046  1147  1179  1140  1047  932  822  733  676  643  613  575  522  422  253  44  -130  -220  -244  -273  -374  -541  -699  -807  -891  -988  -1101  -1203  -1264  -1283  -1277  -1244  -1163  -1007  -768  -498  -272  -135  -78  -69  -83  -116  -178  -266  -353  -390  -317  -124  111  270  281  124  -166  -484  -717  -832  -855  -813  -718  -591  -474  -401  -366  -329  -260  -158  -46  30  19  -68  -155  -198  -235  -342  -547  -800  -1026  -1193  -1314  -1426  -1585  -1819  -2092  -2340  -2514  -2615  -2687  -2782  -2926  -3106  -3307  -3531  -3750  -3903  -3959  -3915  -3760  -3542  -3397  -3415  -3527  -3563  -3311  -2554  -1153  872  3148  4895  5293  3923  1141  -1937  -4197  -5200  -5129  -4520  -3938  -3628  -3534  -3537  -3548  -3529  -3493  -3444  -3361  -3234  -3090  -2946  -2772  -2530  -2228  -1926  -1705  -1603  -1592  -1637  -1720  -1809  -1871  -1901  -1903  -1870  -1789  -1664  -1522  -1423  -1393  -1378  -1315  -1203  -1084  -992  -939  -903  -851  -783  -725  -693  -691  -699  -663  -515  -246  39  225  304  351  411  492  574  623  605  506  364  258  250  360  559  755  864  887  876  864  856  845  835  848  916  1054  1229  1374  1448  1467  1455  1398  1267  1064  859  739  733  796  842  807  715  611  516  463  485  563  662  759  842  920  1021  1157  1305  1424  1493  1512  1475  1343  1094  787  526  347  235  182  176  190  200  183  122  32  -54  -109  -73  167  650  1193  1534  1556  1310  931  541  151  -244  -566  -773  -908  -1009  -1090  -1166  -1268  -1456  -1739  -2038  -2283  -2456  -2558  -2595  -2599  -2595  -2582  -2536  -2436  -2302  -2197  -2150  -2114  -1923  -1263  132  2177  4399  6116  6581  5351  2802  1  -2083  -2985  -2685  -1660  -658  -137  -66  -201  -372  -540  -715  -885  -1014  -1089  -1126  -1125  -1060  -927  -743  -555  -444  -447  -510  -565  -592  -619  -675  -757  -824  -839  -799  -711  -576  -405  -227  -64  80  199  269  290  299  340  446  623  847  1090  1343  1585  1779  1916  2009  2070  2091  2032  1845  1561  1297  1129  1037  965  870  731  568  425  314  183  -25  -289  -513  -641  -703  -750  -802  -832  -775  -533  -35  643  1270  1629  1716  1666  1577  1519  1655  2196  3106  4040  4669  4919  4890  4692  4425  4207  4105  4092  4108  4118  4109  4056  3941  3780  3602  3418  3255  3157  3107  2981  2676  2268  1957  1834  1835  1882  1955  2036  2093  2109  2093  2059  2025  2038  2177  2490  2933  3406  3814  4102  4273  4371  4448  4513  4554  4585  4640  4707  4736  4702  4618  4487  4271  3924  3469  3026  2707  2503  2338  2183  2067  1992  1922  1841  1711  1437  982  526  344  595  1342  2628  4410  6438  8200  8992  8175  5725  2491  -388  -2152  -2600  -2105  -1322  -691  -340  -242  -282  -335  -354  -335  -278  -205  -152  -132  -134  -147  -171  -201  -219  -220  -214  -208  -186  -119  2  205  551  1018  1442  1679  1764  1839  2021  2324  2680  3000  3244  3416  3518  3560  3558  3519  3438  3313  3179  3084  3028  2965  2863  2723  2566  2418  2293  2171  2012  1752  1322  735  118  -387  -711  -883  -1020  -1230  -1541  -1925  -2302  -2566  -2697  -2778  -2896  -3052  -3183  -3251  -3273  -3280  -3309  -3400  -3565  -3760  -3927  -4045  -4125  -4176  -4201  -4216  -4242  -4308  -4429  -4567  -4668  -4731  -4794  -4875  -4953  -4998  -5014  -5025  -5063  -5146  -5271  -5390  -5452  -5449  -5414  -5380  -5366  -5395  -5485  -5616  -5717  -5724  -5594  -5342  -5061  -4849  -4712  -4596  -4464  -4308  -4129  -3939  -3766  -3634  -3519  -3373  -3175  -2936  -2652  -2313  -1943  -1592  -1327  -1190  -1163  -1181  -1207  -1229  -1244  -1250  -1260  -1289  -1345  -1415  -1479  -1515  -1521  -1516  -1534  -1635  -1867  -2171  -2398  -2470  -2469  -2530  -2564  -2145  -829  1399  3972  5930  6300  4666  1640  -1480  -3644  -4529  -4410  -3850  -3330  -3051  -3004  -3058  -3089  -3082  -3067  -3038  -2974  -2883  -2799  -2749  -2718  -2639  -2459  -2222  -2036  -1933  -1823  -1595  -1241  -872  -596  -414  -273  -159  -103  -120  -173  -214  -231  -244  -267  -291  -309  -341  -407  -481  -537  -589  -652  -727  -797  -840  -852  -847  -838  -831  -841  -899  -1026  -1193  -1345  -1507  -1799  -2277  -2823  -3245  -3484  -3669  -3941  -4303  -4655  -4925  -5101  -5203  -5286  -5432  -5693  -6058  -6485  -6936  -7354  -7685  -7934  -8149  -8339  -8475  -8548  -8574  -8571  -8549  -8506  -8407  -8148  -7630  -6892  -6119  -5511  -5164  -5011  -4914  -4806  -4682  -4472  -4072  -3482  -2805  -2196  -1798  -1633  -1605  -1603  -1549  -1366  -1000  -479  124  766  1408  2018  2628  3277  3893  4351  4614  4769  4985  5396  5927  6342  6528  6580  6611  6647  6680  6713  6742  6700  6459  5928  5174  4429  3928  3701  3594  3464  3237  2899  2467  1974  1481  1056  692  339  23  -189  -285  -297  -218  5  401  894  1380  1938  2926  4685  7099  9487  10876  10463  8244  5197  2546  1002  648  1083  1680  2020  2092  2091  2151  2257  2339  2375  2415  2534  2768  3092  3494  3985  4497  4892  5126  5263  5363  5449  5539  5634  5698  5678  5544  5324  5081  4847  4624  4438  4325  4297  4339  4429  4551  4674  4753  4725  4550  4271  4017  3881  3847  3824  3713  3469  3158  2914  2823  2864  2956  3024  3035  2976  2846  2688  2571  2516  2491  2457  2380  2249  2073  1868  1653  1445  1248  1075  921  740  507  247  -11  -253  -473  -679  -880  -1090  -1342  -1670  -2016  -2249  -2327  -2341  -2394  -2527  -2712  -2890  -3045  -3217  -3409  -3570  -3667  -3721  -3752  -3764  -3759  -3749  -3743  -3732  -3700  -3640  -3560  -3478  -3386  -3244  -3030  -2789  -2587  -2425  -2282  -2161  -2052  -1903  -1659  -1332  -1007  -740  -504  -274  -79  47  108  140  172  206  232  251  268  279  276  248  194  136  105  136  251  407  530  591  611  597  539  463  424  443  487  504  442  240  -62  -278  -228  176  999  2322  4196  6435  8462  9462  8749  6242  2783  -336  -2204  -2622  -2026  -1133  -448  -119  -60  -102  -137  -148  -137  -80  63  296  547  726  803  813  795  753  676  568  470  431  458  526  628  737  812  848  895  983  1082  1152  1209  1321  1529  1797  2048  2262  2488  2780  3104  3367  3534  3647  3738  3801  3831  3848  3884  3945  4009  4069  4136  4207  4256  4264  4233  4179  4115  4039  3946  3859  3806  3769  3704  3579  3397  3180  2947  2709  2501  2368  2296  2237  2176  2122  2074  2013  1924  1817  1718  1655  1631  1627  1624  1623  1647  1729  1880  2051  2163  2184  2141  2081  2038  2011  1975  1907  1802  1681  1574  1490  1410  1294  1102  825  535  339  272  293  359  443  503  473  290  -33  -407  -730  -969  -1172  -1383  -1616  -1915  -2327  -2800  -3189  -3397  -3485  -3597  -3826  -4178  -4602  -4988  -5227  -5326  -5369  -5400  -5418  -5413  -5394  -5373  -5363  -5370  -5397  -5444  -5516  -5601  -5655  -5662  -5708  -5854  -6027  -6107  -5921  -5196  -3724  -1550  935  3064  4118  3564  1412  -1506  -4055  -5558  -5941  -5541  -4888  -4366  -4051  -3876  -3780  -3733  -3715  -3706  -3632  -3399  -3021  -2644  -2382  -2239  -2174  -2144  -2097  -1993  -1839  -1701  -1630  -1619  -1632  -1643  -1635  -1597  -1533  -1444  -1305  -1098  -874  -701  -590  -504  -407  -287  -147  -1  128  225  308  393  476  591  820  1151  1449  1626  1718  1789  1850  1888  1912  1938  1969  1988  1970  1918  1850  1754  1605  1437  1300  1181  1032  850  651  441  252  133  83  21  -130  -351  -542  -642  -674  -689  -738  -847  -972  -1028  -983  -884  -797  -753  -745  -754  -784  -850  -938  -1015  -1074  -1127  -1172  -1207  -1242  -1291  -1354  -1411  -1447  -1476  -1521  -1608  -1792  -2089  -2406  -2634  -2745  -2786  -2805  -2831  -2851  -2807  -2638  -2368  -2089  -1885  -1780  -1754  -1767  -1785  -1770  -1687  -1544  -1420  -1396  -1466  -1565  -1657  -1744  -1830  -1920  -2039  -2189  -2325  -2398  -2410  -2397  -2387  -2401  -2453  -2523  -2574  -2594  -2608  -2654  -2754  -2915  -3116  -3275  -3307  -3167  -2764  -1938  -569  1357  3654  5826  7171  7079  5409  2722  28  -1825  -2487  -2103  -1173  -205  502  746  503  36  -348  -532  -547  -475  -380  -280  -163  -42  36  60  77  142  264  400  491  524  515  463  377  282  200  143  125  146  191  234  258  255  224  166  93  10  -91  -204  -298  -355  -385  -400  -415  -442  -502  -627  -822  -1018  -1140  -1211  -1316  -1476  -1628  -1719  -1739  -1691  -1592  -1486  -1422  -1451  -1616  -1903  -2224  -2479  -2619  -2672  -2698  -2718  -2726  -2732  -2738  -2697  -2539  -2254  -1915  -1615  -1414  -1316  -1277  -1207  -966  -377  691  2197  3833  5173  5961  6220  6096  5703  5187  4684  4175  3654  3245  2992  2815  2681  2606  2598  2669  2825  3026  3190  3268  3279  3269  3261  3262  3262  3234  3123  2886  2578  2332  2218  2202  2231  2280  2328  2340  2293  2198  2087  1982  1881  1743  1526  1232  914  610  327  89  -44  -45  71  239  373  432  448  461  463  413  280  81  -113  -231  -264  -256  -257  -277  -256  -47  563  1733  3315  4795  5697  5902  5332  3820  1687  -142  -1024  -1105  -857  -598  -455  -439  -521  -660  -802  -893  -920  -901  -859  -812  -779  -806  -928  -1113  -1275  -1353  -1279  -948  -374]
